# Wavelength(nm) Reflectancia
300.0000	0.0457
301.0000	0.0455
302.0000	0.0453
303.0000	0.0451
304.0000	0.0448
305.0000	0.0446
306.0000	0.0444
307.0000	0.0441
308.0000	0.0439
309.0000	0.0437
310.0000	0.0434
311.0000	0.0432
312.0000	0.0429
313.0000	0.0427
314.0000	0.0424
315.0000	0.0422
316.0000	0.0419
317.0000	0.0417
318.0000	0.0414
319.0000	0.0412
320.0000	0.0409
321.0000	0.0406
322.0000	0.0404
323.0000	0.0401
324.0000	0.0398
325.0000	0.0396
326.0000	0.0393
327.0000	0.0390
328.0000	0.0388
329.0000	0.0385
330.0000	0.0382
331.0000	0.0380
332.0000	0.0377
333.0000	0.0374
334.0000	0.0372
335.0000	0.0369
336.0000	0.0366
337.0000	0.0364
338.0000	0.0361
339.0000	0.0359
340.0000	0.0356
341.0000	0.0354
342.0000	0.0351
343.0000	0.0349
344.0000	0.0346
345.0000	0.0344
346.0000	0.0342
347.0000	0.0341
348.0000	0.0339
349.0000	0.0339
350.0000	0.0339
351.0000	0.0339
352.0000	0.0338
353.0000	0.0338
354.0000	0.0338
355.0000	0.0340
356.0000	0.0342
357.0000	0.0345
358.0000	0.0351
359.0000	0.0359
360.0000	0.0370
361.0000	0.0370
362.0000	0.0372
363.0000	0.0375
364.0000	0.0378
365.0000	0.0383
366.0000	0.0388
367.0000	0.0396
368.0000	0.0405
369.0000	0.0415
370.0000	0.0427
371.0000	0.0440
372.0000	0.0455
373.0000	0.0471
374.0000	0.0489
375.0000	0.0509
376.0000	0.0531
377.0000	0.0555
378.0000	0.0582
379.0000	0.0610
380.0000	0.0640
381.0000	0.0672
382.0000	0.0706
383.0000	0.0741
384.0000	0.0778
385.0000	0.0818
386.0000	0.0856
387.0000	0.0890
388.0000	0.0925
389.0000	0.0950
390.0000	0.0975
391.0000	0.1000
392.0000	0.1024
393.0000	0.1049
394.0000	0.1076
395.0000	0.1101
396.0000	0.1128
397.0000	0.1154
398.0000	0.1181
399.0000	0.1207
400.0000	0.1233
401.0000	0.1193
402.0000	0.1153
403.0000	0.1114
404.0000	0.1075
405.0000	0.1037
406.0000	0.0998
407.0000	0.0960
408.0000	0.0923
409.0000	0.0886
410.0000	0.0854
411.0000	0.0821
412.0000	0.0789
413.0000	0.0757
414.0000	0.0725
415.0000	0.0693
416.0000	0.0662
417.0000	0.0630
418.0000	0.0603
419.0000	0.0576
420.0000	0.0551
421.0000	0.0527
422.0000	0.0507
423.0000	0.0491
424.0000	0.0477
425.0000	0.0468
426.0000	0.0466
427.0000	0.0465
428.0000	0.0465
429.0000	0.0467
430.0000	0.0470
431.0000	0.0473
432.0000	0.0476
433.0000	0.0479
434.0000	0.0481
435.0000	0.0481
436.0000	0.0482
437.0000	0.0483
438.0000	0.0482
439.0000	0.0481
440.0000	0.0479
441.0000	0.0477
442.0000	0.0475
443.0000	0.0472
444.0000	0.0468
445.0000	0.0465
446.0000	0.0462
447.0000	0.0459
448.0000	0.0456
449.0000	0.0454
450.0000	0.0450
451.0000	0.0447
452.0000	0.0444
453.0000	0.0440
454.0000	0.0437
455.0000	0.0433
456.0000	0.0429
457.0000	0.0426
458.0000	0.0423
459.0000	0.0419
460.0000	0.0416
461.0000	0.0412
462.0000	0.0408
463.0000	0.0405
464.0000	0.0401
465.0000	0.0397
466.0000	0.0393
467.0000	0.0389
468.0000	0.0386
469.0000	0.0382
470.0000	0.0379
471.0000	0.0375
472.0000	0.0371
473.0000	0.0367
474.0000	0.0364
475.0000	0.0361
476.0000	0.0358
477.0000	0.0355
478.0000	0.0352
479.0000	0.0348
480.0000	0.0343
481.0000	0.0339
482.0000	0.0334
483.0000	0.0330
484.0000	0.0325
485.0000	0.0321
486.0000	0.0317
487.0000	0.0312
488.0000	0.0308
489.0000	0.0304
490.0000	0.0300
491.0000	0.0296
492.0000	0.0292
493.0000	0.0288
494.0000	0.0284
495.0000	0.0279
496.0000	0.0274
497.0000	0.0270
498.0000	0.0266
499.0000	0.0261
500.0000	0.0257
501.0000	0.0253
502.0000	0.0249
503.0000	0.0245
504.0000	0.0241
505.0000	0.0237
506.0000	0.0234
507.0000	0.0230
508.0000	0.0226
509.0000	0.0223
510.0000	0.0219
511.0000	0.0216
512.0000	0.0214
513.0000	0.0212
514.0000	0.0210
515.0000	0.0208
516.0000	0.0206
517.0000	0.0203
518.0000	0.0202
519.0000	0.0200
520.0000	0.0198
521.0000	0.0196
522.0000	0.0194
523.0000	0.0192
524.0000	0.0191
525.0000	0.0189
526.0000	0.0187
527.0000	0.0186
528.0000	0.0184
529.0000	0.0182
530.0000	0.0180
531.0000	0.0178
532.0000	0.0176
533.0000	0.0174
534.0000	0.0172
535.0000	0.0171
536.0000	0.0169
537.0000	0.0167
538.0000	0.0166
539.0000	0.0164
540.0000	0.0163
541.0000	0.0161
542.0000	0.0160
543.0000	0.0158
544.0000	0.0157
545.0000	0.0155
546.0000	0.0154
547.0000	0.0153
548.0000	0.0152
549.0000	0.0151
550.0000	0.0149
551.0000	0.0148
552.0000	0.0147
553.0000	0.0147
554.0000	0.0146
555.0000	0.0145
556.0000	0.0144
557.0000	0.0143
558.0000	0.0143
559.0000	0.0142
560.0000	0.0142
561.0000	0.0141
562.0000	0.0140
563.0000	0.0140
564.0000	0.0140
565.0000	0.0139
566.0000	0.0139
567.0000	0.0138
568.0000	0.0138
569.0000	0.0137
570.0000	0.0137
571.0000	0.0136
572.0000	0.0136
573.0000	0.0135
574.0000	0.0135
575.0000	0.0135
576.0000	0.0134
577.0000	0.0134
578.0000	0.0134
579.0000	0.0134
580.0000	0.0133
581.0000	0.0133
582.0000	0.0133
583.0000	0.0133
584.0000	0.0133
585.0000	0.0133
586.0000	0.0133
587.0000	0.0133
588.0000	0.0133
589.0000	0.0133
590.0000	0.0134
591.0000	0.0134
592.0000	0.0134
593.0000	0.0134
594.0000	0.0134
595.0000	0.0135
596.0000	0.0135
597.0000	0.0135
598.0000	0.0136
599.0000	0.0136
600.0000	0.0137
601.0000	0.0138
602.0000	0.0138
603.0000	0.0139
604.0000	0.0139
605.0000	0.0140
606.0000	0.0141
607.0000	0.0142
608.0000	0.0143
609.0000	0.0143
610.0000	0.0144
611.0000	0.0145
612.0000	0.0146
613.0000	0.0147
614.0000	0.0148
615.0000	0.0149
616.0000	0.0151
617.0000	0.0152
618.0000	0.0153
619.0000	0.0155
620.0000	0.0156
621.0000	0.0157
622.0000	0.0159
623.0000	0.0160
624.0000	0.0162
625.0000	0.0163
626.0000	0.0165
627.0000	0.0166
628.0000	0.0168
629.0000	0.0170
630.0000	0.0171
631.0000	0.0173
632.0000	0.0175
633.0000	0.0177
634.0000	0.0178
635.0000	0.0180
636.0000	0.0182
637.0000	0.0184
638.0000	0.0186
639.0000	0.0188
640.0000	0.0190
641.0000	0.0192
642.0000	0.0194
643.0000	0.0196
644.0000	0.0198
645.0000	0.0201
646.0000	0.0203
647.0000	0.0206
648.0000	0.0208
649.0000	0.0211
650.0000	0.0213
651.0000	0.0216
652.0000	0.0218
653.0000	0.0221
654.0000	0.0224
655.0000	0.0226
656.0000	0.0229
657.0000	0.0232
658.0000	0.0235
659.0000	0.0237
660.0000	0.0240
661.0000	0.0242
662.0000	0.0245
663.0000	0.0247
664.0000	0.0250
665.0000	0.0252
666.0000	0.0255
667.0000	0.0257
668.0000	0.0260
669.0000	0.0262
670.0000	0.0265
671.0000	0.0267
672.0000	0.0269
673.0000	0.0271
674.0000	0.0273
675.0000	0.0275
676.0000	0.0276
677.0000	0.0278
678.0000	0.0280
679.0000	0.0282
680.0000	0.0283
681.0000	0.0285
682.0000	0.0287
683.0000	0.0289
684.0000	0.0290
685.0000	0.0292
686.0000	0.0294
687.0000	0.0296
688.0000	0.0298
689.0000	0.0299
690.0000	0.0300
691.0000	0.0299
692.0000	0.0297
693.0000	0.0298
694.0000	0.0299
695.0000	0.0300
696.0000	0.0300
697.0000	0.0301
698.0000	0.0301
699.0000	0.0302
700.0000	0.0302
701.0000	0.0303
702.0000	0.0304
703.0000	0.0305
704.0000	0.0306
705.0000	0.0307
706.0000	0.0308
707.0000	0.0309
708.0000	0.0310
709.0000	0.0311
710.0000	0.0312
711.0000	0.0314
712.0000	0.0315
713.0000	0.0316
714.0000	0.0318
715.0000	0.0319
716.0000	0.0320
717.0000	0.0322
718.0000	0.0323
719.0000	0.0324
720.0000	0.0325
721.0000	0.0327
722.0000	0.0328
723.0000	0.0330
724.0000	0.0331
725.0000	0.0333
726.0000	0.0334
727.0000	0.0336
728.0000	0.0337
729.0000	0.0339
730.0000	0.0340
731.0000	0.0342
732.0000	0.0343
733.0000	0.0345
734.0000	0.0346
735.0000	0.0348
736.0000	0.0349
737.0000	0.0350
738.0000	0.0352
739.0000	0.0353
740.0000	0.0355
741.0000	0.0357
742.0000	0.0358
743.0000	0.0360
744.0000	0.0362
745.0000	0.0363
746.0000	0.0365
747.0000	0.0366
748.0000	0.0368
749.0000	0.0369
750.0000	0.0371
751.0000	0.0372
752.0000	0.0373
753.0000	0.0375
754.0000	0.0376
755.0000	0.0378
756.0000	0.0380
757.0000	0.0381
758.0000	0.0383
759.0000	0.0385
760.0000	0.0386
761.0000	0.0388
762.0000	0.0390
763.0000	0.0392
764.0000	0.0393
765.0000	0.0395
766.0000	0.0397
767.0000	0.0398
768.0000	0.0400
769.0000	0.0402
770.0000	0.0403
771.0000	0.0405
772.0000	0.0407
773.0000	0.0408
774.0000	0.0410
775.0000	0.0412
776.0000	0.0413
777.0000	0.0415
778.0000	0.0417
779.0000	0.0419
780.0000	0.0420
781.0000	0.0422
782.0000	0.0424
783.0000	0.0425
784.0000	0.0427
785.0000	0.0428
786.0000	0.0430
787.0000	0.0431
788.0000	0.0433
789.0000	0.0435
790.0000	0.0436
791.0000	0.0438
792.0000	0.0439
793.0000	0.0441
794.0000	0.0443
795.0000	0.0445
796.0000	0.0446
797.0000	0.0448
798.0000	0.0450
799.0000	0.0452
800.0000	0.0453
801.0000	0.0455
802.0000	0.0457
803.0000	0.0458
804.0000	0.0460
805.0000	0.0462
806.0000	0.0463
807.0000	0.0465
808.0000	0.0467
809.0000	0.0468
810.0000	0.0470
811.0000	0.0472
812.0000	0.0473
813.0000	0.0475
814.0000	0.0477
815.0000	0.0478
816.0000	0.0480
817.0000	0.0482
818.0000	0.0483
819.0000	0.0485
820.0000	0.0487
821.0000	0.0488
822.0000	0.0490
823.0000	0.0492
824.0000	0.0493
825.0000	0.0495
826.0000	0.0497
827.0000	0.0498
828.0000	0.0500
829.0000	0.0503
830.0000	0.0505
831.0000	0.0507
832.0000	0.0509
833.0000	0.0511
834.0000	0.0513
835.0000	0.0515
836.0000	0.0517
837.0000	0.0520
838.0000	0.0522
839.0000	0.0524
840.0000	0.0526
841.0000	0.0528
842.0000	0.0530
843.0000	0.0532
844.0000	0.0535
845.0000	0.0537
846.0000	0.0539
847.0000	0.0542
848.0000	0.0544
849.0000	0.0546
850.0000	0.0548
851.0000	0.0551
852.0000	0.0553
853.0000	0.0555
854.0000	0.0558
855.0000	0.0560
856.0000	0.0562
857.0000	0.0564
858.0000	0.0567
859.0000	0.0569
860.0000	0.0571
861.0000	0.0574
862.0000	0.0576
863.0000	0.0578
864.0000	0.0581
865.0000	0.0583
866.0000	0.0585
867.0000	0.0588
868.0000	0.0590
869.0000	0.0592
870.0000	0.0595
871.0000	0.0597
872.0000	0.0599
873.0000	0.0601
874.0000	0.0604
875.0000	0.0606
876.0000	0.0608
877.0000	0.0611
878.0000	0.0614
879.0000	0.0616
880.0000	0.0619
881.0000	0.0621
882.0000	0.0624
883.0000	0.0626
884.0000	0.0629
885.0000	0.0631
886.0000	0.0633
887.0000	0.0635
888.0000	0.0637
889.0000	0.0639
890.0000	0.0641
891.0000	0.0643
892.0000	0.0645
893.0000	0.0647
894.0000	0.0649
895.0000	0.0650
896.0000	0.0652
897.0000	0.0654
898.0000	0.0656
899.0000	0.0658
900.0000	0.0660
